# FORPRINT: Tue Nov 29 08:32:13 2016
# lambda[um]  F1       F2
   0.10000  1.21e-21  8.60e-29
   0.10100  1.69e-21  1.22e-28
   0.10200  2.13e-21  1.79e-28
   0.10300  2.98e-21  3.86e-28
   0.10400  4.30e-21  6.74e-28
   0.10500  5.72e-21  8.05e-28
   0.10600  7.51e-21  1.45e-27
   0.10700  1.00e-20  2.54e-27
   0.10800  1.34e-20  4.41e-27
   0.10900  1.75e-20  6.90e-27
   0.11000  1.01e-19  9.14e-27
   0.11100  2.79e-19  1.23e-26
   0.11200  4.79e-19  2.35e-26
   0.11300  7.31e-19  4.51e-26
   0.11400  1.03e-18  7.50e-26
   0.11500  1.27e-18  1.12e-25
   0.11600  1.61e-18  1.51e-25
   0.11700  2.13e-18  2.18e-25
   0.11800  2.46e-18  2.95e-25
   0.11900  2.14e-18  3.46e-25
   0.12000  1.76e-18  3.45e-25
   0.12100  1.03e-18  1.92e-25
   0.12200  1.31e-18  2.95e-25
   0.12300  4.11e-18  1.01e-24
   0.12400  8.29e-18  1.89e-24
   0.12500  1.26e-17  2.75e-24
   0.12600  1.50e-17  3.75e-24
   0.12700  1.81e-17  5.01e-24
   0.12800  2.33e-17  6.02e-24
   0.12900  2.86e-17  7.00e-24
   0.13000  3.21e-17  9.01e-24
   0.13100  3.79e-17  1.16e-23
   0.13200  4.51e-17  1.37e-23
   0.13300  5.03e-17  1.56e-23
   0.13400  5.82e-17  1.93e-23
   0.13500  6.74e-17  2.59e-23
   0.13600  7.54e-17  3.12e-23
   0.13700  8.22e-17  3.46e-23
   0.13800  8.92e-17  3.94e-23
   0.13900  9.96e-17  4.59e-23
   0.14000  1.16e-16  5.89e-23
   0.14100  1.33e-16  7.79e-23
   0.14200  1.50e-16  9.49e-23
   0.14300  1.72e-16  1.21e-22
   0.14400  2.21e-16  1.86e-22
   0.14500  2.32e-16  1.86e-22
   0.14600  2.83e-16  2.63e-22
   0.14700  3.29e-16  3.52e-22
   0.14800  3.65e-16  4.03e-22
   0.14900  4.39e-16  5.26e-22
   0.15000  5.42e-16  7.55e-22
   0.15100  5.10e-16  6.24e-22
   0.15200  7.83e-16  1.24e-21
   0.15300  1.37e-15  2.58e-21
   0.15400  1.54e-15  2.67e-21
   0.15500  1.78e-15  3.00e-21
   0.15600  2.05e-15  3.66e-21
   0.15700  2.62e-15  6.49e-21
   0.15800  3.55e-15  9.42e-21
   0.15900  4.17e-15  9.03e-21
   0.16000  4.62e-15  8.72e-21
   0.16100  5.03e-15  8.70e-21
   0.16200  5.46e-15  8.46e-21
   0.16300  6.20e-15  9.74e-21
   0.16400  7.89e-15  1.34e-20
   0.16500  7.48e-15  1.36e-20
   0.16600  8.08e-15  1.60e-20
   0.16700  8.24e-15  1.70e-20
   0.16800  3.15e-14  3.25e-20
   0.16900  3.23e-14  4.86e-20
   0.17000  3.72e-14  5.90e-20
   0.17100  5.51e-14  6.18e-20
   0.17200  7.46e-14  7.60e-20
   0.17300  9.75e-14  9.65e-20
   0.17400  1.23e-13  1.27e-19
   0.17500  1.68e-13  1.50e-19
   0.17600  1.74e-13  1.77e-19
   0.17700  1.66e-13  1.84e-19
   0.17800  2.18e-13  2.60e-19
   0.17900  3.13e-13  3.14e-19
   0.18000  3.49e-13  4.03e-19
   0.18100  2.89e-13  4.39e-19
   0.18200  2.92e-13  4.70e-19
   0.18300  3.21e-13  5.50e-19
   0.18400  2.47e-13  6.00e-19
   0.18500  2.81e-13  6.13e-19
   0.18600  4.63e-13  7.56e-19
   0.18700  5.34e-13  9.30e-19
   0.18800  5.43e-13  1.01e-18
   0.18900  6.57e-13  1.29e-18
   0.19000  7.25e-13  1.47e-18
   0.19100  7.43e-13  1.86e-18
   0.19200  6.93e-13  1.99e-18
   0.19300  4.30e-13  1.48e-18
   0.19400  5.94e-13  1.86e-18
   0.19500  9.52e-13  3.10e-18
   0.19600  1.12e-12  3.78e-18
   0.19700  1.22e-12  4.16e-18
   0.19800  1.23e-12  5.29e-18
   0.19900  1.50e-12  5.51e-18
   0.20000  1.48e-12  5.54e-18
   0.20100  1.46e-12  6.35e-18
   0.20200  1.30e-12  6.39e-18
   0.20300  1.40e-12  6.90e-18
   0.20400  1.89e-12  7.98e-18
   0.20500  1.98e-12  9.03e-18
   0.20600  1.86e-12  9.54e-18
   0.20700  1.97e-12  8.91e-18
   0.20800  5.32e-12  1.83e-17
   0.20900  6.03e-12  2.32e-17
   0.21000  5.50e-12  2.29e-17
   0.21100  5.74e-12  2.14e-17
   0.21200  5.71e-12  2.25e-17
   0.21300  5.06e-12  2.79e-17
   0.21400  5.81e-12  2.83e-17
   0.21500  6.71e-12  2.71e-17
   0.21600  6.10e-12  2.93e-17
   0.21700  5.62e-12  3.03e-17
   0.21800  6.71e-12  3.00e-17
   0.21900  7.65e-12  3.93e-17
   0.22000  7.45e-12  4.54e-17
   0.22100  6.30e-12  4.53e-17
   0.22200  5.91e-12  4.77e-17
   0.22300  7.77e-12  6.24e-17
   0.22400  8.80e-12  8.45e-17
   0.22500  7.33e-12  9.88e-17
   0.22600  5.87e-12  8.06e-17
   0.22700  5.95e-12  7.96e-17
   0.22800  7.66e-12  1.08e-16
   0.22900  8.20e-12  1.45e-16
   0.23000  8.36e-12  1.23e-16
   0.23100  8.57e-12  1.44e-16
   0.23200  6.90e-12  1.99e-16
   0.23300  5.48e-12  2.25e-16
   0.23400  3.89e-12  2.22e-16
   0.23500  4.98e-12  1.55e-16
   0.23600  5.24e-12  1.71e-16
   0.23700  4.19e-12  1.96e-16
   0.23800  3.69e-12  2.62e-16
   0.23900  2.86e-12  3.16e-16
   0.24000  3.34e-12  4.18e-16
   0.24100  3.88e-12  4.38e-16
   0.24200  6.66e-12  3.93e-16
   0.24300  8.87e-12  5.38e-16
   0.24400  9.90e-12  7.50e-16
   0.24500  1.14e-11  9.35e-16
   0.24600  1.10e-11  8.20e-16
   0.24700  9.53e-12  8.62e-16
   0.24800  6.85e-12  7.34e-16
   0.24900  5.60e-12  4.23e-16
   0.25000  8.71e-12  7.18e-16
   0.25100  6.37e-12  7.70e-16
   0.25200  2.57e-12  6.60e-16
   0.25300  4.53e-12  1.26e-15
   0.25400  6.34e-12  1.93e-15
   0.25500  9.51e-12  2.32e-15
   0.25600  1.07e-11  2.01e-15
   0.25700  1.05e-11  1.90e-15
   0.25800  1.12e-11  2.08e-15
   0.25900  9.82e-12  2.02e-15
   0.26000  8.43e-12  2.58e-15
   0.26100  7.20e-12  2.83e-15
   0.26200  8.38e-12  3.34e-15
   0.26300  1.39e-11  5.30e-15
   0.26400  2.12e-11  6.03e-15
   0.26500  2.84e-11  7.66e-15
   0.26600  2.67e-11  8.31e-15
   0.26700  2.31e-11  6.32e-15
   0.26800  2.65e-11  7.26e-15
   0.26900  2.46e-11  6.85e-15
   0.27000  2.33e-11  6.90e-15
   0.27100  2.21e-11  8.08e-15
   0.27200  1.76e-11  6.90e-15
   0.27300  1.84e-11  6.70e-15
   0.27400  1.52e-11  8.10e-15
   0.27500  1.23e-11  9.25e-15
   0.27600  1.69e-11  1.11e-14
   0.27700  2.01e-11  1.47e-14
   0.27800  1.61e-11  1.38e-14
   0.27900  7.86e-12  1.12e-14
   0.28000  4.96e-12  1.18e-14
   0.28100  1.21e-11  1.35e-14
   0.28200  2.41e-11  1.53e-14
   0.28300  2.91e-11  1.48e-14
   0.28400  2.53e-11  1.20e-14
   0.28500  1.66e-11  7.66e-15
   0.28600  2.12e-11  9.96e-15
   0.28700  3.46e-11  1.61e-14
   0.28800  3.57e-11  2.07e-14
   0.28900  3.53e-11  2.72e-14
   0.29000  4.14e-11  4.40e-14
   0.29100  4.90e-11  7.11e-14
   0.29200  4.64e-11  6.28e-14
   0.29300  4.37e-11  5.45e-14
   0.29400  4.32e-11  4.75e-14
   0.29500  4.27e-11  4.04e-14
   0.29600  4.43e-11  3.97e-14
   0.29700  4.60e-11  3.90e-14
   0.29800  4.65e-11  4.12e-14
   0.29900  4.70e-11  4.34e-14
   0.30000  4.85e-11  4.33e-14
   0.30100  5.00e-11  4.33e-14
   0.30200  5.04e-11  4.94e-14
   0.30300  5.09e-11  5.55e-14
   0.30400  5.24e-11  5.93e-14
   0.30500  5.39e-11  6.31e-14
   0.30600  5.44e-11  7.82e-14
   0.30700  5.50e-11  9.33e-14
   0.30800  5.49e-11  8.82e-14
   0.30900  5.49e-11  8.30e-14
   0.31000  5.64e-11  1.22e-13
   0.31100  5.80e-11  1.61e-13
   0.31200  5.77e-11  1.49e-13
   0.31300  5.74e-11  1.37e-13
   0.31400  5.62e-11  1.70e-13
   0.31500  5.50e-11  2.03e-13
   0.31600  5.69e-11  2.37e-13
   0.31700  5.88e-11  2.72e-13
   0.31800  5.62e-11  2.36e-13
   0.31900  5.35e-11  2.00e-13
   0.32000  5.70e-11  2.08e-13
   0.32100  6.05e-11  2.17e-13
   0.32200  5.63e-11  2.08e-13
   0.32300  5.21e-11  1.99e-13
   0.32400  5.90e-11  2.95e-13
   0.32500  6.59e-11  3.90e-13
   0.32600  7.05e-11  4.61e-13
   0.32700  7.52e-11  5.31e-13
   0.32800  7.41e-11  5.64e-13
   0.32900  7.31e-11  5.98e-13
   0.33000  7.34e-11  5.32e-13
   0.33100  7.37e-11  4.66e-13
   0.33200  7.42e-11  4.84e-13
   0.33300  7.47e-11  5.03e-13
   0.33400  7.45e-11  4.84e-13
   0.33500  7.44e-11  4.65e-13
   0.33600  6.85e-11  3.56e-13
   0.33700  6.26e-11  2.45e-13
   0.33800  6.65e-11  2.78e-13
   0.33900  7.05e-11  3.11e-13
   0.34000  7.09e-11  3.20e-13
   0.34100  7.14e-11  3.29e-13
   0.34200  7.24e-11  3.60e-13
   0.34300  7.34e-11  3.92e-13
   0.34400  7.52e-11  3.88e-13
   0.34500  7.70e-11  3.85e-13
   0.34600  7.83e-11  3.83e-13
   0.34700  7.95e-11  3.81e-13
   0.34800  8.20e-11  4.69e-13
   0.34900  8.46e-11  5.56e-13
   0.35000  8.62e-11  6.51e-13
   0.35100  8.79e-11  7.46e-13
   0.35200  8.57e-11  7.05e-13
   0.35300  8.36e-11  6.65e-13
   0.35400  8.93e-11  7.88e-13
   0.35500  9.51e-11  9.12e-13
   0.35600  8.71e-11  6.43e-13
   0.35700  7.91e-11  3.73e-13
   0.35800  7.78e-11  3.76e-13
   0.35900  7.65e-11  3.80e-13
   0.36000  8.07e-11  4.92e-13
   0.36100  8.49e-11  6.04e-13
   0.36200  8.53e-11  6.72e-13
   0.36300  8.58e-11  7.40e-13
   0.36400  8.77e-11  8.59e-13
   0.36500  9.77e-11  1.09e-12
   0.36600  9.79e-11  1.23e-12
   0.36700  9.82e-11  1.36e-12
   0.36800  9.55e-11  1.16e-12
   0.36900  9.28e-11  9.63e-13
   0.37000  9.60e-11  8.81e-13
   0.37100  9.93e-11  7.99e-13
   0.37200  9.25e-11  5.74e-13
   0.37300  8.58e-11  3.48e-13
   0.37400  9.04e-11  3.92e-13
   0.37500  9.51e-11  4.37e-13
   0.37600  1.02e-10  7.24e-13
   0.37700  1.08e-10  1.01e-12
   0.37800  1.12e-10  1.07e-12
   0.37900  1.15e-10  1.12e-12
   0.38000  1.18e-10  1.03e-12
   0.38100  1.21e-10  9.38e-13
   0.38200  1.02e-10  6.60e-13
   0.38300  8.28e-11  3.82e-13
   0.38400  1.00e-10  5.34e-13
   0.38500  1.17e-10  6.86e-13
   0.38600  1.17e-10  6.57e-13
   0.38700  1.18e-10  6.28e-13
   0.38800  1.15e-10  7.12e-13
   0.38900  1.13e-10  7.96e-13
   0.39000  1.21e-10  1.01e-12
   0.39100  1.28e-10  1.23e-12
   0.39200  1.00e-10  8.55e-13
   0.39300  7.20e-11  4.80e-13
   0.39400  9.33e-11  7.74e-13
   0.39500  1.15e-10  1.07e-12
   0.39600  9.81e-11  8.94e-13
   0.39700  8.15e-11  7.19e-13
   0.39800  1.14e-10  1.46e-12
   0.39900  1.47e-10  2.21e-12
   0.40000  1.51e-10  2.42e-12
   0.40100  1.55e-10  2.63e-12
   0.40200  1.57e-10  2.48e-12
   0.40300  1.59e-10  2.32e-12
   0.40400  1.57e-10  2.29e-12
   0.40500  1.55e-10  2.26e-12
   0.40600  1.54e-10  2.11e-12
   0.40700  1.53e-10  1.96e-12
   0.40800  1.58e-10  2.56e-12
   0.40900  1.63e-10  3.17e-12
   0.41000  1.58e-10  2.80e-12
   0.41100  1.53e-10  2.43e-12
   0.41200  1.60e-10  2.47e-12
   0.41300  1.67e-10  2.52e-12
   0.41400  1.69e-10  2.43e-12
   0.41500  1.71e-10  2.35e-12
   0.41600  1.71e-10  2.43e-12
   0.41700  1.72e-10  2.51e-12
   0.41800  1.70e-10  2.51e-12
   0.41900  1.68e-10  2.50e-12
   0.42000  1.68e-10  2.41e-12
   0.42100  1.68e-10  2.32e-12
   0.42200  1.66e-10  1.98e-12
   0.42300  1.63e-10  1.63e-12
   0.42400  1.65e-10  2.01e-12
   0.42500  1.66e-10  2.38e-12
   0.42600  1.63e-10  2.30e-12
   0.42700  1.60e-10  2.23e-12
   0.42800  1.56e-10  2.23e-12
   0.42900  1.52e-10  2.24e-12
   0.43000  1.42e-10  2.21e-12
   0.43100  1.32e-10  2.17e-12
   0.43200  1.50e-10  2.81e-12
   0.43300  1.68e-10  3.44e-12
   0.43400  1.63e-10  3.63e-12
   0.43500  1.59e-10  3.81e-12
   0.43600  1.71e-10  3.94e-12
   0.43700  1.82e-10  4.06e-12
   0.43800  1.77e-10  3.67e-12
   0.43900  1.72e-10  3.28e-12
   0.44000  1.76e-10  3.36e-12
   0.44100  1.80e-10  3.44e-12
   0.44200  1.83e-10  3.69e-12
   0.44300  1.87e-10  3.95e-12
   0.44400  1.86e-10  4.03e-12
   0.44500  1.86e-10  4.12e-12
   0.44600  1.89e-10  4.41e-12
   0.44700  1.92e-10  4.70e-12
   0.44800  1.93e-10  4.81e-12
   0.44900  1.93e-10  4.92e-12
   0.45000  2.01e-10  5.48e-12
   0.45100  2.08e-10  6.03e-12
   0.45200  2.01e-10  5.43e-12
   0.45300  1.94e-10  4.83e-12
   0.45400  1.97e-10  5.15e-12
   0.45500  1.99e-10  5.47e-12
   0.45600  2.04e-10  5.75e-12
   0.45700  2.10e-10  6.04e-12
   0.45800  2.05e-10  5.89e-12
   0.45900  2.01e-10  5.74e-12
   0.46000  2.03e-10  5.83e-12
   0.46100  2.06e-10  5.93e-12
   0.46200  2.05e-10  5.94e-12
   0.46300  2.03e-10  5.96e-12
   0.46400  2.05e-10  5.90e-12
   0.46500  2.06e-10  5.85e-12
   0.46600  2.09e-10  6.14e-12
   0.46700  2.11e-10  6.44e-12
   0.46800  2.10e-10  6.34e-12
   0.46900  2.09e-10  6.24e-12
   0.47000  2.06e-10  6.08e-12
   0.47100  2.03e-10  5.93e-12
   0.47200  2.08e-10  5.96e-12
   0.47300  2.12e-10  5.99e-12
   0.47400  2.13e-10  5.97e-12
   0.47500  2.15e-10  5.95e-12
   0.47600  2.15e-10  5.76e-12
   0.47700  2.15e-10  5.57e-12
   0.47800  2.15e-10  5.72e-12
   0.47900  2.15e-10  5.88e-12
   0.48000  2.15e-10  6.23e-12
   0.48100  2.15e-10  6.58e-12
   0.48200  2.16e-10  6.62e-12
   0.48300  2.17e-10  6.66e-12
   0.48400  2.10e-10  6.70e-12
   0.48500  2.03e-10  6.75e-12
   0.48600  1.91e-10  6.45e-12
   0.48700  1.79e-10  6.16e-12
   0.48800  1.94e-10  6.35e-12
   0.48900  2.10e-10  6.54e-12
   0.49000  2.11e-10  6.57e-12
   0.49100  2.11e-10  6.60e-12
   0.49200  2.10e-10  6.37e-12
   0.49300  2.09e-10  6.14e-12
   0.49400  2.12e-10  6.24e-12
   0.49500  2.16e-10  6.33e-12
   0.49600  2.18e-10  6.26e-12
   0.49700  2.19e-10  6.19e-12
   0.49800  2.14e-10  5.86e-12
   0.49900  2.08e-10  5.54e-12
   0.50000  2.05e-10  5.25e-12
   0.50100  2.03e-10  4.96e-12
   0.50200  2.08e-10  5.19e-12
   0.50300  2.13e-10  5.42e-12
   0.50400  2.13e-10  5.24e-12
   0.50500  2.14e-10  5.06e-12
   0.50600  2.17e-10  5.04e-12
   0.50700  2.21e-10  5.01e-12
   0.50800  2.18e-10  4.90e-12
   0.50900  2.16e-10  4.79e-12
   0.51000  2.18e-10  4.83e-12
   0.51100  2.19e-10  4.88e-12
   0.51200  2.18e-10  4.77e-12
   0.51300  2.16e-10  4.66e-12
   0.51400  2.14e-10  4.50e-12
   0.51500  2.11e-10  4.35e-12
   0.51600  2.06e-10  4.17e-12
   0.51700  2.01e-10  4.00e-12
   0.51800  2.01e-10  4.23e-12
   0.51900  2.02e-10  4.46e-12
   0.52000  2.07e-10  4.90e-12
   0.52100  2.13e-10  5.34e-12
   0.52200  2.14e-10  6.24e-12
   0.52300  2.16e-10  7.13e-12
   0.52400  2.19e-10  7.54e-12
   0.52500  2.22e-10  7.95e-12
   0.52600  2.13e-10  7.11e-12
   0.52700  2.04e-10  6.26e-12
   0.52800  2.13e-10  7.17e-12
   0.52900  2.21e-10  8.08e-12
   0.53000  2.24e-10  8.50e-12
   0.53100  2.26e-10  8.91e-12
   0.53200  2.19e-10  8.14e-12
   0.53300  2.12e-10  7.36e-12
   0.53400  2.18e-10  7.88e-12
   0.53500  2.23e-10  8.41e-12
   0.53600  2.23e-10  8.29e-12
   0.53700  2.23e-10  8.18e-12
   0.53800  2.22e-10  8.13e-12
   0.53900  2.22e-10  8.08e-12
   0.54000  2.20e-10  8.00e-12
   0.54100  2.17e-10  7.92e-12
   0.54200  2.20e-10  7.94e-12
   0.54300  2.23e-10  7.95e-12
   0.54400  2.25e-10  8.08e-12
   0.54500  2.26e-10  8.20e-12
   0.54600  2.25e-10  8.43e-12
   0.54700  2.24e-10  8.65e-12
   0.54800  2.24e-10  8.73e-12
   0.54900  2.25e-10  8.81e-12
   0.55000  2.25e-10  8.69e-12
   0.55100  2.26e-10  8.57e-12
   0.55200  2.26e-10  8.91e-12
   0.55300  2.27e-10  9.26e-12
   0.55400  2.28e-10  9.36e-12
   0.55500  2.29e-10  9.46e-12
   0.55600  2.27e-10  9.28e-12
   0.55700  2.24e-10  9.11e-12
   0.55800  2.24e-10  8.86e-12
   0.55900  2.23e-10  8.61e-12
   0.56000  2.25e-10  8.98e-12
   0.56100  2.27e-10  9.36e-12
   0.56200  2.28e-10  9.53e-12
   0.56300  2.29e-10  9.70e-12
   0.56400  2.29e-10  9.86e-12
   0.56500  2.29e-10  1.00e-11
   0.56600  2.28e-10  9.88e-12
   0.56700  2.26e-10  9.74e-12
   0.56800  2.27e-10  9.86e-12
   0.56900  2.29e-10  9.97e-12
   0.57000  2.27e-10  9.76e-12
   0.57100  2.26e-10  9.54e-12
   0.57200  2.31e-10  1.00e-11
   0.57300  2.35e-10  1.05e-11
   0.57400  2.33e-10  1.04e-11
   0.57500  2.31e-10  1.04e-11
   0.57600  2.32e-10  1.04e-11
   0.57700  2.32e-10  1.05e-11
   0.57800  2.31e-10  1.03e-11
   0.57900  2.30e-10  1.00e-11
   0.58000  2.31e-10  1.03e-11
   0.58100  2.33e-10  1.06e-11
   0.58200  2.34e-10  1.07e-11
   0.58300  2.35e-10  1.09e-11
   0.58400  2.33e-10  1.07e-11
   0.58500  2.32e-10  1.05e-11
   0.58600  2.32e-10  1.05e-11
   0.58700  2.32e-10  1.05e-11
   0.58800  2.28e-10  8.62e-12
   0.58900  2.23e-10  6.72e-12
   0.59000  2.27e-10  8.45e-12
   0.59100  2.32e-10  1.02e-11
   0.59200  2.32e-10  1.05e-11
   0.59300  2.32e-10  1.07e-11
   0.59400  2.32e-10  1.08e-11
   0.59500  2.32e-10  1.08e-11
   0.59600  2.32e-10  1.10e-11
   0.59700  2.33e-10  1.11e-11
   0.59800  2.32e-10  1.10e-11
   0.59900  2.32e-10  1.10e-11
   0.60000  2.31e-10  1.09e-11
   0.60100  2.29e-10  1.09e-11
   0.60200  2.30e-10  1.10e-11
   0.60300  2.30e-10  1.12e-11
   0.60400  2.32e-10  1.13e-11
   0.60500  2.33e-10  1.14e-11
   0.60600  2.33e-10  1.13e-11
   0.60700  2.33e-10  1.13e-11
   0.60800  2.31e-10  1.12e-11
   0.60900  2.30e-10  1.10e-11
   0.61000  2.30e-10  1.10e-11
   0.61100  2.29e-10  1.11e-11
   0.61200  2.26e-10  1.07e-11
   0.61300  2.23e-10  1.03e-11
   0.61400  2.24e-10  1.06e-11
   0.61500  2.25e-10  1.10e-11
   0.61600  2.24e-10  1.04e-11
   0.61700  2.22e-10  9.86e-12
   0.61800  2.26e-10  1.06e-11
   0.61900  2.30e-10  1.13e-11
   0.62000  2.30e-10  1.13e-11
   0.62100  2.30e-10  1.12e-11
   0.62200  2.28e-10  1.11e-11
   0.62300  2.27e-10  1.10e-11
   0.62400  2.24e-10  1.08e-11
   0.62500  2.21e-10  1.07e-11
   0.62600  2.25e-10  1.09e-11
   0.62700  2.29e-10  1.12e-11
   0.62800  2.30e-10  1.13e-11
   0.62900  2.30e-10  1.14e-11
   0.63000  2.27e-10  1.13e-11
   0.63100  2.25e-10  1.12e-11
   0.63200  2.26e-10  1.13e-11
   0.63300  2.27e-10  1.14e-11
   0.63400  2.27e-10  1.15e-11
   0.63500  2.27e-10  1.15e-11
   0.63600  2.27e-10  1.16e-11
   0.63700  2.27e-10  1.16e-11
   0.63800  2.28e-10  1.17e-11
   0.63900  2.28e-10  1.18e-11
   0.64000  2.26e-10  1.16e-11
   0.64100  2.24e-10  1.15e-11
   0.64200  2.25e-10  1.15e-11
   0.64300  2.26e-10  1.16e-11
   0.64400  2.25e-10  1.15e-11
   0.64500  2.25e-10  1.13e-11
   0.64600  2.24e-10  1.13e-11
   0.64700  2.24e-10  1.13e-11
   0.64800  2.23e-10  1.13e-11
   0.64900  2.22e-10  1.13e-11
   0.65000  2.24e-10  1.15e-11
   0.65100  2.25e-10  1.18e-11
   0.65200  2.25e-10  1.20e-11
   0.65300  2.24e-10  1.21e-11
   0.65400  2.17e-10  1.20e-11
   0.65500  2.11e-10  1.19e-11
   0.65600  1.83e-10  1.17e-11
   0.65700  1.91e-10  1.18e-11
   0.65800  2.05e-10  1.19e-11
   0.65900  2.19e-10  1.20e-11
   0.66000  2.22e-10  1.21e-11
   0.66100  2.25e-10  1.22e-11
   0.66200  2.25e-10  1.22e-11
   0.66300  2.25e-10  1.22e-11
   0.66400  2.25e-10  1.23e-11
   0.66500  2.25e-10  1.23e-11
   0.66600  2.24e-10  1.22e-11
   0.66700  2.24e-10  1.21e-11
   0.66800  2.25e-10  1.22e-11
   0.66900  2.26e-10  1.23e-11
   0.67000  2.25e-10  1.21e-11
   0.67100  2.24e-10  1.20e-11
   0.67200  2.24e-10  1.22e-11
   0.67300  2.25e-10  1.24e-11
   0.67400  2.25e-10  1.23e-11
   0.67500  2.24e-10  1.22e-11
   0.67600  2.24e-10  1.23e-11
   0.67700  2.24e-10  1.24e-11
   0.67800  2.24e-10  1.23e-11
   0.67900  2.24e-10  1.23e-11
   0.68000  2.23e-10  1.23e-11
   0.68100  2.23e-10  1.24e-11
   0.68200  2.23e-10  1.25e-11
   0.68300  2.24e-10  1.26e-11
   0.68400  2.22e-10  1.24e-11
   0.68500  2.21e-10  1.23e-11
   0.68600  2.22e-10  1.24e-11
   0.68700  2.23e-10  1.25e-11
   0.68800  2.23e-10  1.25e-11
   0.68900  2.23e-10  1.26e-11
   0.69000  2.22e-10  1.26e-11
   0.69100  2.22e-10  1.26e-11
   0.69200  2.22e-10  1.26e-11
   0.69300  2.22e-10  1.26e-11
   0.69400  2.22e-10  1.26e-11
   0.69500  2.22e-10  1.26e-11
   0.69600  2.21e-10  1.27e-11
   0.69700  2.21e-10  1.28e-11
   0.69800  2.21e-10  1.27e-11
   0.69900  2.21e-10  1.26e-11
   0.70000  2.19e-10  1.26e-11
   0.70100  2.17e-10  1.26e-11
   0.70200  2.18e-10  1.27e-11
   0.70300  2.19e-10  1.28e-11
   0.70400  2.20e-10  1.28e-11
   0.70500  2.20e-10  1.29e-11
   0.70600  2.19e-10  1.28e-11
   0.70700  2.19e-10  1.27e-11
   0.70800  2.19e-10  1.26e-11
   0.70900  2.18e-10  1.26e-11
   0.71000  2.18e-10  1.26e-11
   0.71100  2.18e-10  1.25e-11
   0.71200  2.17e-10  1.24e-11
   0.71300  2.17e-10  1.23e-11
   0.71400  2.16e-10  1.22e-11
   0.71500  2.16e-10  1.21e-11
   0.71600  2.16e-10  1.23e-11
   0.71700  2.16e-10  1.25e-11
   0.71800  2.14e-10  1.24e-11
   0.71900  2.13e-10  1.22e-11
   0.72000  2.14e-10  1.23e-11
   0.72100  2.15e-10  1.23e-11
   0.72200  2.15e-10  1.26e-11
   0.72300  2.15e-10  1.28e-11
   0.72400  2.15e-10  1.28e-11
   0.72500  2.16e-10  1.27e-11
   0.72600  2.16e-10  1.28e-11
   0.72700  2.15e-10  1.29e-11
   0.72800  2.14e-10  1.28e-11
   0.72900  2.12e-10  1.28e-11
   0.73000  2.13e-10  1.29e-11
   0.73100  2.14e-10  1.29e-11
   0.73200  2.14e-10  1.29e-11
   0.73300  2.14e-10  1.28e-11
   0.73400  2.14e-10  1.28e-11
   0.73500  2.14e-10  1.29e-11
   0.73600  2.14e-10  1.30e-11
   0.73700  2.14e-10  1.31e-11
   0.73800  2.12e-10  1.31e-11
   0.73900  2.11e-10  1.30e-11
   0.74000  2.09e-10  1.29e-11
   0.74100  2.07e-10  1.28e-11
   0.74200  2.08e-10  1.29e-11
